frequency,T,R,A
0.0004932133838383839,0.9786234087768817,0.7560628635958956,-0.7346862723727772
0.0009864267676767677,0.9225457508514195,0.6493859587111755,-0.5719317095625951
0.0014796401515151515,0.8498143486561084,1.3294741768802705,-1.179288525536379
0.0019728535353535355,0.7777688012700599,2.136945894370074,-1.914714695640134
0.0024660669191919195,0.7173391639287464,1.9993585197483588,-1.716697683677105
0.002959280303030303,0.6734618143503899,0.9633707954546619,-0.6368326098050519
0.003452493686868687,0.6476458278888704,0.18722439762224943,0.16512977448888022
0.003945707070707071,0.6400099916674427,0.5744588379177431,-0.21446882958518576
0.004438920454545455,0.6505346692624004,1.7402924584640618,-1.390827127726462
0.004932133838383839,0.6792548428215311,2.4354270784365504,-2.1146819212580814
0.005425347222222223,0.7259334532693944,1.93607230267686,-1.6620057559462547
0.005918560606060606,0.7886917753398678,0.8584170186815318,-0.6471087940213995
0.00641177398989899,0.8617785415517668,0.39712438694824714,-0.25890292850001395
0.006904987373737374,0.9331680950246364,0.8016827495870925,-0.7348508446117288
0.007398200757575758,0.9847866619629762,1.1526014018510273,-1.1373880638140035
0.007891414141414142,0.9994309209639264,0.9532128049957197,-0.9526437259596461
0.008384627525252526,0.9714820650307752,0.9362772219096775,-0.9077592869404527
0.00887784090909091,0.911318299711153,1.5354816973552488,-1.4467999970664018
0.009371054292929294,0.8375777937541076,1.9093207665850223,-1.7468985603391296
0.009864267676767678,0.7667667629467937,1.3254161076738336,-1.0921828706206274
0.010357481060606062,0.7087482631870524,0.3960200665768252,-0.10476832976387751
0.010850694444444446,0.6677048447799183,0.3036701774595154,0.028624977760566273
0.01134390782828283,0.6448271414761461,1.2970314304072086,-0.9418585718833548
0.011837121212121212,0.6401395924401396,2.3701622608018735,-2.010301853242013
0.012330334595959596,0.6536413274454209,2.3896116478048137,-2.0432529752502346
0.01282354797979798,0.6853706392898986,1.351217190884599,-1.0365878301744975
0.013316761363636364,0.7349437019717323,0.38010159702079854,-0.1150452989925308
0.013809974747474748,0.8000496082315393,0.43498766674850153,-0.23503727498004068
0.014303188131313132,0.8740034690132965,1.1773185295477704,-1.051321998561067
0.014796401515151516,0.9436088153657914,1.497227208382663,-1.4408360237484543
0.0152896148989899,0.9901569750457451,1.1549403476693512,-1.1450973227150962
0.015782828282828284,0.9976000121666456,1.033087224784935,-1.0306872369515805
0.016276041666666668,0.9630039931772553,1.4189927279465646,-1.3819967211238198
0.016769255050505052,0.8989831325319098,1.441921411630076,-1.3409045441619858
0.017262468434343436,0.8245454453866933,0.7454779516740223,-0.5700233970607156
0.01775568181818182,0.7552222275131116,0.2567836703366761,-0.012005897849787672
0.018248895202020204,0.6998201788728089,0.8291725375858847,-0.5289927164586936
0.018742108585858588,0.6617922715662092,2.009602985969621,-1.6713952575358304
0.01923532196969697,0.6420348759805138,2.5489746352531095,-2.191009511233623
0.019728535353535356,0.6404834567687097,1.8525414582827708,-1.4930249150514805
0.02022174873737374,0.6571860555353668,0.6547382429599465,-0.3119242984953132
0.020714962121212124,0.6921867242424602,0.20559174837334437,0.10222152738419543
0.021208175505050508,0.7448798332985627,0.8747488349258036,-0.6196286682243661
0.02170138888888889,0.8124119738494102,1.7445038704753133,-1.5569158443247235
0.022194602272727276,0.8869920488225463,1.767620046344112,-1.6546120951666583
0.02268781565656566,0.9541727388115148,1.139768959720705,-1.0939416985322197
0.023181029040404044,0.9947156021631225,0.8903459534300702,-0.8850615555931927
0.023674242424242424,0.9941877609924347,1.1410596362385992,-1.135247397231034
0.024167455808080808,0.9526817257663057,1.0279731749875305,-0.9806549007538363
0.024660669191919192,0.8849657409810504,0.4919538651692628,-0.3769196061503133
0.025153882575757576,0.81020929102209,0.52086026040298,-0.3310695514250699
0.02564709595959596,0.7427650599932742,1.4673388181445217,-1.210103878137796
0.026140309343434344,0.6903345780055665,2.375253569007099,-2.0655881470126656
0.026633522727272728,0.6556057394381039,2.190970298832201,-1.846576038270305
0.027126736111111112,0.6392828665628214,1.0681998168518778,-0.7074826834146992
0.027619949494949496,0.6412364543865945,0.20575974114340065,0.15300380447000483
0.02811316287878788,0.6615292979802817,0.5097115432681434,-0.1712408412484252
0.028606376262626264,0.7001935613797953,1.5892639944039344,-1.2894575557837298
0.029099589646464648,0.756309715795163,2.2045623406652473,-1.9608720564604103
0.029592803030303032,0.8263971805798301,1.7195824735807967,-1.545979654160627
0.030086016414141416,0.9012019440634401,0.8585845351240482,-0.7597864791874884
0.0305792297979798,0.9649761823170105,0.6611864811025459,-0.6261626634195565
0.031072443181818184,0.9981805639753163,0.9618837863048671,-0.9600643502801836
0.03156565656565657,0.9886065263897401,0.882110478237418,-0.8707170046271582
0.03205886994949495,0.9398581581837331,0.5805853308000583,-0.5204434889837914
0.032552083333333336,0.8686984776751743,0.9576244911203653,-0.8263229687955396
0.03304529671717172,0.7941760294100204,1.8915547073276748,-1.6857307367376952
0.033538510101010104,0.7290651943703687,2.242644720935322,-1.9717099153056905
0.03403172348484849,0.6801116244103838,1.475528154849529,-1.1556397792599125
0.03452493686868687,0.6491691008497043,0.4093452543267786,-0.058514355176482846
0.035018150252525256,0.6367617364064007,0.25255164578585576,0.11068661780774358
0.03551136363636364,0.6427199171311606,1.2125476447650236,-0.8552675618961842
0.036004577020202023,0.6671041326668679,2.2596321008822278,-1.9267362335490956
0.03649779040404041,0.7100502026207027,2.271602267517338,-1.981652470138041
0.03699100378787879,0.7699154285828514,1.2976125617762142,-1.0675279903590655
0.037484217171717175,0.8426055710279725,0.48052454733527294,-0.32313011836324534
0.03797743055555556,0.9169397474106222,0.5953900799152091,-0.5123298273258312
0.03847064393939394,0.9758856788350516,1.0611884455727867,-1.0370741244078383
0.03896385732323233,0.9999552299639576,1.0143545671308076,-1.0143097970947652
0.03945707070707071,0.9799850141530148,0.8286400505421757,-0.8086250646951905
0.039950284090909095,0.9238525813217116,1.2844690803522723,-1.2083216616739838
0.04044349747474748,0.8495347642698264,1.923542113457397,-1.7730768777272234
0.04093671085858586,0.7760694714534385,1.7174881470826484,-1.4935576185360868
0.04142992424242425,0.713968623105704,0.7457888141342166,-0.45975743723992046
0.04192313762626263,0.6691880275452614,0.18073422047447169,0.15007775198026696
0.042416351010101015,0.642633418416258,0.7911967211635202,-0.43383013957977834
0.0429095643939394,0.6347321849371438,2.0043140470472474,-1.6390462319843913
0.04340277777777778,0.6455321153591376,2.54509108832717,-2.1906232036863074
0.04389599116161617,0.6745040836745799,1.848606841155402,-1.523110924829982
0.04438920454545455,0.7224989564452737,0.6926442195936354,-0.41514317603890927
0.044882417929292935,0.7863797800417913,0.29382103494393974,-0.08020081498573095
0.04537563131313132,0.8617553180717162,0.865913107812834,-0.7276684258845503
0.0458688446969697,0.934380602926085,1.4111934099466243,-1.3455740128727092
0.04636205808080809,0.986210831284347,1.2375716703590953,-1.2237825016434423
0.04685527146464647,0.9990744844356481,0.9930958772145111,-0.9921703616501591
0.04734848484848485,0.9670331552779684,1.3386094401833417,-1.3056425954613102
0.04784169823232323,0.9039498432607043,1.6208874771623276,-1.5248373204230319
0.048334911616161616,0.8268933911018611,1.0838902087795943,-0.9107835998814555
0.048828125,0.755814003611725,0.32432468332803144,-0.08013868693975645
0.049321338383838384,0.6973681292607334,0.4602632750350141,-0.1576314042957474
0.04981455176767677,0.6577607246417363,1.5625698074971257,-1.220330532138862
0.05030776515151515,0.6365369717909372,2.5055734906429,-2.142110462433837
0.050800978535353536,0.6335956057810069,2.2727851128614702,-1.906380718642477
0.05129419191919192,0.6504101341364088,1.1112900546885365,-0.7617001888249453
0.051787405303030304,0.6842299030965845,0.2449647392897545,0.07080535761366102
0.05228061868686869,0.7389845329226586,0.5220430544493911,-0.2610275873720498
0.05277383207070707,0.8063403055714902,1.4310117345776314,-1.2373520401491218
0.053267045454545456,0.8845344413598044,1.7870009374135145,-1.671535378773319
0.05376025883838384,0.952923489424409,1.3038008412258522,-1.2567243306502611
0.054253472222222224,0.9946670757065578,0.9365827859021998,-0.9312498616087574
0.05474668560606061,0.9943456615468816,1.1698097046803009,-1.1641553662271824
0.05523989898989899,0.9476567307898736,1.2080763790348492,-1.1557331098247228
0.055733112373737376,0.8804462815291442,0.642876706126122,-0.5233229876552663
0.05622632575757576,0.7990511665311386,0.3437144762936092,-0.1427656428247479
0.056719539141414144,0.7349269143382106,1.0721045490972847,-0.8070314634354951
0.05721275252525253,0.6783335772296779,2.1819464546307454,-1.8602800318604231
0.05770596590909091,0.6474817750206914,2.4714921310452906,-2.118973906065982
0.058199179292929296,0.63042951269331,1.5549691771375882,-1.1853986898308984
0.05869239267676768,0.6341772440055404,0.4214995505382385,-0.05567679454377883
0.059185606060606064,0.6594321941044672,0.2567712862214801,0.08379651967405266
0.05967881944444445,0.6950633993040398,1.15046856203145,-0.8455319613354899
0.06017203282828283,0.7653123401894384,2.059204948300414,-1.8245172884898526
0.060665246212121215,0.823146179885587,1.874233972660691,-1.6973801525462777
0.0611584595959596,0.9216221595453911,1.1007960537852715,-1.0224182133306625
0.06165167297979798,0.9586988909348103,0.7163481840730672,-0.6750470750078774
0.06214488636363637,1.0138145376805776,0.986349751974535,-1.0001642896551126
0.06263809974747475,0.9683899806759259,0.9329640048860715,-0.9013539855619972
0.06313131313131314,0.9354814843046181,0.536466373197696,-0.47194785750231416
0.06362452651515152,0.8390325750468938,0.6987570694574725,-0.5377896445043664
0.0641177398989899,0.778319067731613,1.690981259506932,-1.4693003272385452
0.06461095328282829,0.7041939010466862,2.3576070224190584,-2.0618009234657446
0.06510416666666667,0.6639706276598198,1.9114894608076523,-1.575460088467472
0.06559738005050506,0.63528535339211,0.73642598854969,-0.3717113419418001
0.06609059343434344,0.6256138499409188,0.15241704628022834,0.22196910377885282
0.06658380681818182,0.6418380553423587,0.7969004845807546,-0.4387385399231132
0.06707702020202021,0.6645643079300063,1.9343756384407031,-1.5989399463707095
0.06757023358585859,0.7241174256289487,2.357123046330098,-2.0812404719590467
0.06806344696969698,0.7795556801238049,1.586332102442331,-1.3658877825661357
0.06855666035353536,0.8688995944752924,0.6798665129041671,-0.5487661073794596
0.06904987373737374,0.932815340435602,0.571594047849757,-0.5044093882853589
0.06954308712121213,0.9919962589887983,0.9719989026319615,-0.9639951616207598
0.07003630050505051,0.9966942111054818,0.9202965811685395,-0.9169907922740212
0.0705295138888889,0.958627915140188,0.6908457372011106,-0.6494736523412987
0.07102272727272728,0.8945173333135746,1.1568257298021931,-1.0513430631157679
0.07151594065656566,0.8073697853491631,1.977590611089631,-1.7849603964387941
0.07200915404040405,0.7443432940734955,2.0601605738208573,-1.8045038678943528
0.07250236742424243,0.6777576010983294,1.0907211429549353,-0.7684787440532648
0.07299558080808081,0.6489859419444017,0.22385317711378058,0.12716088094181766
0.0734887941919192,0.6225633830897213,0.4664350519797845,-0.08899843506950589
0.07398200757575758,0.6293451549608123,1.6462300306900222,-1.2755751856508346
0.07447522095959597,0.6459865059561357,2.4825367792267494,-2.1285232851828852
0.07496843434343435,0.686469730941592,2.1216655195301133,-1.8081352504717052
0.07546164772727273,0.7473931415484812,0.9898002380034975,-0.7371933795519787
0.07595486111111112,0.815389098045242,0.3472912879945121,-0.1626803860397541
0.0764480744949495,0.9045544935116,0.7117225363681671,-0.6162770298797671
0.07694128787878789,0.959530420074159,1.1872412909225358,-1.1467717109966946
0.07743450126262627,1.006165299744087,1.0716764077277061,-1.0778417074717934
0.07792771464646465,0.9778808042183422,0.9136696145216119,-0.8915504187399541
0.07842092803030304,0.932373465235685,1.4470885762809758,-1.3794620415166605
0.07891414141414142,0.8468601663617229,1.884641433974552,-1.731501600336275
0.0794073547979798,0.772046880014189,1.3946424274185667,-1.1666893074327556
0.07990056818181819,0.7058854377280032,0.4391184815935448,-0.145003919321548
0.08039378156565657,0.6549877692485512,0.2645942064142221,0.08041802433722678
0.08088699494949496,0.632282551039172,1.245488710050541,-0.877771261089713
0.08138020833333334,0.6166665812145588,2.3581219196829273,-1.974788500897486
0.08187342171717173,0.6362217382815061,2.4948324328754783,-2.1310541711569844
0.08236663510101011,0.6576236062754913,1.4286626421172877,-1.086286248392779
0.0828598484848485,0.7172895902158755,0.4000941296578169,-0.11738371987369245
0.08335306186868688,0.777469176848179,0.3937027315355983,-0.17117190838377727
0.08384627525252526,0.8639247757172798,1.159909376694179,-1.023834152411459
0.08433948863636365,0.9374256594443294,1.5171218216205615,-1.4545474810648908
0.08483270202020203,0.9882327723345642,1.158032666168841,-1.1462654385034052
0.08532591540404041,1.0004261098557568,1.0436760774204235,-1.04410218727618
0.0858191287878788,0.9499576699182755,1.454162201628859,-1.4041198715471346
0.08631234217171718,0.8888869788885382,1.4967161266226432,-1.3856031055111813
0.08680555555555557,0.7946084800743056,0.7319468873402837,-0.5265553674145893
0.08729876893939395,0.7328515996287573,0.2313243653455936,0.035824035025649015
0.08779198232323233,0.6664404252145808,0.8405530556961922,-0.506993480910773
0.08828519570707072,0.6376809122155244,2.0807924891990917,-1.7184734014146161
0.0887784090909091,0.6160024998487402,2.6072051474059017,-2.223207647254642
0.08927162247474749,0.6211167687655521,1.8687568084546224,-1.4898735772201745
0.08976483585858587,0.6453857007513457,0.6419246157923114,-0.28731031654365724
0.09025804924242425,0.6841439411787222,0.20432463450901164,0.11153142431226615
0.09075126262626264,0.7551734383467364,0.9073798231032741,-0.6625532614500105
0.09124447601010102,0.8215732113524058,1.7206791702626645,-1.5422523816150702
0.0917376893939394,0.917734648379922,1.6766010035283194,-1.5943356519082412
0.09223090277777779,0.9671487083763829,1.06397359895755,-1.0311223073339328
0.09272411616161617,1.0068042232906071,1.006506426432321,-1.013310649722928
0.09321732954545456,0.9697959041287366,1.2872128567917214,-1.257008760920458
0.09371054292929294,0.9104894211286436,0.9996573917565776,-0.9101468128852213
0.09420375631313133,0.8264818928979322,0.3760865779023854,-0.2025684708003177
0.0946969696969697,0.7443120502094274,0.5513206722713142,-0.29563272248074157
0.09519018308080808,0.6880250976141195,1.6646033177168063,-1.3526284153309258
0.09568339646464646,0.6348375551718213,2.5201719404241842,-2.1550094955960057
0.09617660984848485,0.6222098972172955,2.2104734065349323,-1.8326833037522277
0.09666982323232323,0.6077845381465197,0.9672760466053633,-0.575060584751883
0.09716303661616162,0.6356714256439158,0.17405381131352812,0.19027476304255608
0.09765625,0.6636662317786914,0.596436508783673,-0.2601027405623646
0.09814946338383838,0.7286088695000204,1.678150750850147,-1.4067596203501673
0.09864267676767677,0.8007926019024278,2.0815649116542634,-1.8823575135566912
0.09913589015151515,0.8834915410680373,1.4676076263459712,-1.3510991674140085
0.09962910353535354,0.9640444470643973,0.8195309799913459,-0.7835754270557431
0.10012231691919192,0.9906999945228228,0.90989408588861,-0.9005940804114327
0.1006155303030303,0.9944611310980503,1.0820872848114214,-1.0765484159094716
0.10110874368686869,0.9183359286786527,0.6459102913146103,-0.564246219993263
0.10160195707070707,0.8522881109353929,0.45038217122466084,-0.30267028216005376
0.10209517045454546,0.7565688685964794,1.2098695648186204,-0.9664384334150999
0.10258838383838384,0.6967735576575668,2.29207806685329,-1.9888516245108567
0.10308159722222222,0.6424280768855815,2.3548719945691636,-1.9973000714547453
0.10357481060606061,0.6149792127792911,1.3243794961392032,-0.9393587089184945
0.10406802398989899,0.609919657022119,0.27375105133130573,0.11632929164657524
0.10456123737373738,0.616253388055038,0.35067916164974217,0.033067450295219736
0.10505445075757576,0.6590117299092977,1.4485017045522552,-1.107513434461553
0.10554766414141414,0.701901685994845,2.2529396818482126,-1.9548413678430574
0.10604087752525253,0.7893470098572741,1.9727862300455585,-1.7621332399028327
0.10653409090909091,0.8598003629965029,0.9731606033118549,-0.8329609663083577
0.1070273042929293,0.9524533517729863,0.6081472836282302,-0.5606006354012165
0.10752051767676768,0.9903615320612533,0.9101598225085368,-0.9005213545697901
0.10801373106060606,0.9926776564042833,0.9210448719491634,-0.9137225283534467
0.10850694444444445,0.9392811112159223,0.5665027116937025,-0.5057838229096248
0.10900015782828283,0.852286628380993,0.8763154820216036,-0.7286021104025966
0.10949337121212122,0.7753625398879971,1.902987366855467,-1.6783499067434642
0.1099865845959596,0.69201927276532,2.3386914964812613,-2.030710769246581
0.11047979797979798,0.6505294101294185,1.6445495861946593,-1.2950789963240776
0.11097301136363637,0.6076264537553693,0.46212927945386756,-0.06975573320923689
0.11146622474747475,0.606866018285104,0.19991433035175077,0.19321965136314523
0.11195943813131314,0.6087020576719252,1.1308706581429335,-0.7395727158148588
0.11245265151515152,0.6464626516642891,2.2648330088455038,-1.9112956605097926
0.1129458648989899,0.696599772574184,2.3339554150908355,-2.0305551876650196
0.11343907828282829,0.7685450638762721,1.3443187978390487,-1.1128638617153208
0.11393229166666667,0.8603826614069578,0.516415795871113,-0.37679845727807093
0.11442550505050506,0.932576932390973,0.6333456110984249,-0.565922543489398
0.11491871843434344,1.0010955528175944,1.0417875979677775,-1.042883150785372
0.11541193181818182,0.983757671940767,0.8392225592395274,-0.8229802311802943
0.11590514520202021,0.9500782885823824,0.7539382022146067,-0.704016490796989
0.11639835858585859,0.8507540854670078,1.4519750578059136,-1.3027291432729213
0.11689157196969698,0.7752247452969565,2.1976452151858688,-1.972869960482825
0.11738478535353536,0.6929989344789159,1.8331939351636828,-1.5261928696425988
0.11787799873737374,0.6412150140332978,0.7106356613636174,-0.3518506753969153
0.11837121212121213,0.6093673437175273,0.14295787157333079,0.24767478470914184
0.11886442550505051,0.5931634993555658,0.8373501595417759,-0.4305136588973417
0.1193576388888889,0.6119495165308285,2.115390215344439,-1.7273397318752672
0.11985085227272728,0.6323710285437475,2.5344269223194176,-2.166797950863165
0.12034406565656566,0.6996625739160341,1.769007653480357,-1.468670227396391
0.12083727904040405,0.758983066246341,0.6234264416661478,-0.38240950791248896
0.12133049242424243,0.8625218266651363,0.403516134653433,-0.26603796131856927
0.12182370580808081,0.9342437444784087,0.9529649322064804,-0.8872086766848892
0.1223169191919192,0.9957184061851568,1.1419810838735258,-1.1376994900586825
0.12281013257575758,0.992817132721169,0.8542605873572757,-0.8470777200784447
0.12330334595959597,0.9315247119468026,1.1207765561897547,-1.0523012681365573
0.12379655934343435,0.8566044476377889,1.8999198527553072,-1.756524300393096
0.12428977272727273,0.7528832645550453,1.907468231401815,-1.6603514959568604
0.12478298611111112,0.6935040473926515,0.9745101803809234,-0.668014227773575
0.1252761994949495,0.6240548811134121,0.173768255711352,0.20217686317523587
0.1257694128787879,0.6062668862447457,0.5967411966228734,-0.20300808286761907
0.12626262626262627,0.5863122566992813,1.8486561871619909,-1.4349684438612722
0.12675583964646464,0.6060127888546234,2.652633460608991,-2.258646249463615
